12000 $\Omega$
     $f$  Inc $f$  $V_{IN}$  Inc $V_{IN}$  $V_{OUT}$  Inc $V_{OUT}$
    11.2    0.560      1.82         0.015     12.000         0.0600
    22.0    1.100      1.82         0.015     12.100         0.0600
    62.5    3.125      1.82         0.015     12.000         0.0600
   133.0    6.650      1.80         0.015     11.600         0.0600
   196.0    9.800      1.80         0.015     10.900         0.0600
   224.0   11.200      1.80         0.015     10.500         0.0600
   278.0   13.900      1.80         0.015      9.920         0.0600
   308.0   15.400      1.80         0.015      9.520         0.0600
   345.0   17.250      1.82         0.015      9.120         0.0600
   385.0   19.250      1.82         0.015      8.720         0.0600
   400.0   20.000      1.82         0.015      8.560         0.0600
   434.0   21.700      1.82         0.015      8.160         0.0600
   476.0   23.800      1.82         0.015      7.760         0.0600
   526.0   26.300      1.82         0.015      7.280         0.0600
   617.0   30.850      1.82         0.015      6.560         0.0600
   680.0   34.000      1.82         0.015      6.080         0.0600
   762.0   38.100      1.82         0.015      5.600         0.0600
   917.0   45.850      1.82         0.015      4.960         0.0600
  1250.0   62.500      1.82         0.015      3.680         0.0600
  1750.0   87.500      1.82         0.015      2.800         0.0600
  2220.0  111.000      1.82         0.015      2.180         0.0150
  3050.0  152.500      1.82         0.015      1.620         0.0150
  3700.0  185.000      1.82         0.015      1.340         0.0150
  4310.0  215.500      1.82         0.015      1.140         0.0060
  5750.0  287.500      1.82         0.015      0.856         0.0060
  6830.0  341.500      1.82         0.015      0.736         0.0060
  8400.0  420.000      1.82         0.015      0.608         0.0060
 11100.0  555.000      1.82         0.015      0.464         0.0030
 14100.0  705.000      1.82         0.015      0.366         0.0015
 18100.0  905.000      1.84         0.015      0.294         0.0015
 21400.0 1070.000      1.82         0.015      0.252         0.0015
 65300.0 3265.000      1.80         0.015      0.106         0.0015
133000.0 6650.000      1.80         0.015      0.074         0.0015
Il valore del guadagno teorico per $R_1$ = 1800 $\Omega$$ e R_2$ = 12000 $\Omega$ è:  6.666666666666667 $\pm$ 0.11235415786753714
Il valore del guadagno sperimentale per $R_1$ = 1800 $\Omega$$ e $ R_2$ = 12000 $\Omega$ è:  6.569315026606307 $\pm$ 0.031783368592272626
$\Delta$ = 0.09735164006036001 $\pm$ 0.1167631761695258
t = 0.8337529283977114
Il coefficiente angolare $\rho$della retta obliqua per $R_1$ = 1800 $\Omega$ e $R_2$ = 12000 $\Omega$ è pari a -18.880073471235185 $\pm$ 0.20024544526439586 
La frequenza di taglio sperimentale per per $R_1$ = 1800 $\Omega$ e $R_2$ = 12000 $\Omega$ è:  355.8213306302947 $\pm$ 48.11291985200039
La frequenza di taglio teorica per per $R_1$ = 1800 $\Omega$ e $R_2$ = 12000 $\Omega$ è:  401.9064219492306 $\pm$ 40.20319980878829
Scarto tra frequenza di taglio e frequenza di taglio teorica: 46.085091318935895 $\pm$ 62.69888620661748
